frequency,gain_dB
1,-9.4
2,0.7
5,10.3
10,13.6
20,14.8
50,15.2
100,15.5
200,16.0
500,18.3
1000,22.1
2000,26.3
5000,30.4
7000,31.3
8000,31.7
10000,31.8
20000,32.2
30000,31.9
40000,31.9
50000,31.8
60000,31.5
70000,31.5
80000,31.2
90000,30.9
100000,30.7
120000,30.2
140000,29.5
150000,29.4
170000,28.8
180000,28.4
200000,28.5
